"Time (sec)","Elevation (deg)","Azimuth (deg)","Aspect Angle (deg)","Range (m)","Range Rate (m/s)"
30,-0.030563755,-46.732969,73.014053,436580.5848,-268.06503156
31,0.018091261,-46.814496,72.73402,436309.73952,-273.589781496
32,0.069378733,-46.89879,72.580004,436032.98112,-280.356795648
33,0.12310586,-46.986132,72.832892,435749.42568,-287.322929544
34,0.17936832,-47.076557,73.007974,435458.25024,-294.149013936
35,0.23822373,-47.170199,73.200751,435160.64352,-301.013756112
36,0.29972857,-47.267113,73.412321,434856.57504,-307.8618684
37,0.36396182,-47.367379,73.605491,434544.88656,-314.71160832
38,0.43097357,-47.47109,73.81612,434227.13256,-321.58753056
39,0.50083756,-47.578372,73.97141,433901.91096,-328.51246464
40,0.57358483,-47.6893,74.130892,433570.04472,-335.53478232
41,0.64927862,-47.804063,74.291965,433230.64992,-342.65210616
42,0.72798312,-47.922696,74.509567,432884.82384,-349.74193704
43,0.80978876,-48.04533,74.700913,432531.28632,-356.82759216
44,0.89475721,-48.172148,74.90076,432171.13464,-363.88892424
45,0.98296741,-48.303155,75.108555,431803.9116,-370.91291832
46,1.0744993,-48.438505,75.309425,431429.16,-377.91185784
47,1.169407,-48.578424,75.516977,431047.76376,-384.82475232
48,1.2677546,-48.72288,75.723098,430659.63144,-391.65660048
49,1.3696009,-48.87203,75.938881,430264.33632,-398.38646256
50,1.4749813,-49.026061,76.189705,429863.12808,-404.9417352
51,1.5839707,-49.185077,76.419307,429455.09232,-411.30538008
52,1.6966321,-49.349151,76.677532,429040.50336,-417.44496648
53,1.8130261,-49.518462,76.80244,428619.8184,-423.3796968
54,1.9331425,-49.693234,76.714506,428193.34224,-429.49752048
55,2.0568898,-49.873737,76.679011,427760.95296,-435.88466544
56,2.1842407,-50.060176,76.623371,427321.33992,-442.4722164
57,2.315159,-50.253045,76.572957,426875.93568,-449.22777312
58,2.4496523,-50.452453,76.629243,426423.2772,-456.07461744
59,2.5877734,-50.658832,76.932465,425963.57784,-462.67030656
60,2.7296732,-50.872334,77.183094,425497.99584,-468.79340328
61,2.875485,-51.093146,77.417919,425026.62264,-474.45125328
62,3.0253315,-51.321503,77.660023,424549.33632,-479.64717888
63,3.1793324,-51.557565,77.909191,424067.478,-484.3953228
64,3.3376586,-51.801666,78.171063,423580.49904,-488.6673996
65,3.5004603,-52.054119,78.430593,423089.9844,-492.41726256
66,3.6679254,-52.31522,78.68898,422595.81216,-495.62723328
67,3.8402346,-52.585382,78.949784,422099.26248,-498.2490924
68,4.0175584,-52.864855,79.21173,421599.84768,-499.69951368
69,4.1992437,-53.152794,79.474547,421101.19488,-496.61390136
70,4.383275,-53.446471,79.723563,420608.88192,-487.54457736
71,4.5677645,-53.743117,80.01095,420127.14552,-475.033848
72,4.7518156,-54.041363,80.312322,419658.72888,-461.3134284
73,4.9350885,-54.34091,80.609359,419204.8512,-447.17247624
74,5.1174598,-54.641495,80.899069,418764.96384,-432.88235496
75,5.2988518,-54.943058,81.186709,418339.15824,-418.52846952
76,5.4792139,-55.245435,81.470899,417927.34296,-404.15071824
76.360001,5.5438727,-55.354486,81.573136,417782.9592,-398.97408648
77,5.6584707,-55.548667,81.757049,417530.76768,-389.77293648
78,5.8366191,-55.852685,82.056472,417148.0608,-375.41073
79,6.013612,-56.157526,82.35001,416779.71,-361.07077392
80,6.1894119,-56.463075,82.635371,416426.142,-346.76931408
81,6.3640181,-56.769365,82.919414,416086.25952,-332.5127208
82,6.537386,-57.076331,83.202423,415761.03792,-318.30727296
83,6.7095151,-57.383957,83.482081,415449.59328,-304.154366544
83.760002,6.839475,-57.618256,83.692099,415222.85256,-293.431261752
84,6.8803725,-57.692277,83.75773,415152.5352,-290.053053624
85,7.0499448,-58.001325,84.013793,414869.5284,-276.002209488
86,7.2182175,-58.310934,84.261901,414600.42048,-262.009713216
86.760002,7.3452102,-58.54667,84.458611,414405.71424,-251.411756256
87,7.3851631,-58.621185,84.522606,414345.51624,-248.071590216
88,7.5507688,-58.932114,84.797256,414104.54136,-234.18570384
89,7.7150212,-59.243552,85.080064,413877.28248,-220.358723112
89.760002,7.8389357,-59.480715,85.301609,413713.81824,-209.884466184
90,7.8778988,-59.555634,85.372487,413663.86152,-206.58525612
90.760002,8.0007666,-59.793162,85.596175,413510.51664,-196.156460112
91,8.039396,-59.868242,85.664791,413463.85176,-192.86953044
91.160004,8.0650942,-59.918365,85.708531,413433.49368,-190.678131216
91.599998,8.1356129,-60.056081,85.820062,413350.64904,-184.67380896
91.639999,8.1420207,-60.068643,85.828873,413342.90712,-184.14863856
91.68,8.1484035,-60.081198,85.8392,413335.98816,-183.638741688
92,8.199546,-60.18161,86.190001,413277.89328,-179.664951312
92.040001,8.2059409,-60.194129,86.276558,413270.57808,-179.168736912
93,8.3591323,-60.497235,85.928143,413104.7364,-166.707034632
94,8.5183899,-60.815741,78.357118,412943.40576,-155.313860568
95,8.6774536,-61.13709,71.253531,412793.01744,-146.585049984
96,8.8365527,-61.46133,66.026052,412649.9748,-140.129830992
97,8.9958871,-61.788143,62.509291,412512.11376,-135.446835024
98,9.1556213,-62.117565,60.332692,412378.30656,-132.08448564
99,9.3159119,-62.449636,59.137798,412247.42544,-129.682494
100,9.4768906,-62.784239,58.610782,412118.92176,-127.948392312
101,9.6386922,-63.121421,58.54876,411991.6068,-126.631625832
101.6,9.7362062,-63.325004,58.673838,411915.864,-125.955920808
102,9.8014011,-63.461264,58.908845,411865.84632,-125.53610148
103,9.9651312,-63.803824,60.026228,411740.42112,-124.301695008
104,10.129913,-64.149324,60.832425,411616.79424,-122.805364752
105,10.295804,-64.497848,61.542565,411495.24,-121.130379024
106,10.462916,-64.849458,62.287717,411374.72208,-119.2672494
107,10.631273,-65.204432,63.062485,411256.52064,-117.157628016
108,10.800954,-65.562765,63.838759,411140.6052,-114.771260424
109,10.972025,-65.924658,64.624764,411027.09768,-112.071110376
110,11.144534,-66.290353,65.419063,410916.79056,-108.971175504
111,11.318548,-66.659846,66.224616,410809.68384,-105.433599648
112,11.494131,-67.033343,67.037934,410705.99088,-101.425891128
113,11.671313,-67.411032,67.847249,410606.80896,-96.899833632
114,11.850153,-67.793062,68.681836,410512.5648,-91.804214664
115,12.030728,-68.17955,69.512306,410423.07552,-86.095313712
116,12.213041,-68.570716,70.352282,410340.23088,-79.719156792
117,12.397167,-68.966678,71.20097,410263.87848,-72.615884232
118,12.583125,-69.367622,72.063871,410195.29848,-64.73506992
119,12.770966,-69.773757,72.933471,410135.03952,-56.014668768
120,12.960727,-70.185179,73.812124,410083.92456,-46.395266112
121,13.152446,-70.602039,74.708741,410042.62416,-35.814509016
122,13.346141,-71.024637,75.600885,410012.388,-24.2017424016
123,13.54183,-71.453007,76.504861,409994.22192,-11.4917896656
124,13.739518,-71.887387,77.42155,409989.58896,2.37267759144
125,13.939201,-72.32801,78.352627,409999.8912,17.4744976392
126,14.140946,-72.774911,79.287382,410024.91528,33.867702648
127,14.344676,-73.228314,80.224634,410067.61776,51.63027012
127.36,14.418506,-73.393127,80.561235,410087.5212,58.366941432
127.44,14.434953,-73.42986,80.638557,410092.18464,59.888798688
127.52,14.451412,-73.46666,80.717987,410096.97,61.42126908
127.6,14.467884,-73.503525,80.800038,410101.8468,62.9645172
128,14.550407,-73.688362,81.292277,410129.09592,70.683168768
128.08,14.566981,-73.725478,81.39926,410134.308,72.265208784
128.16,14.583533,-73.762626,81.504114,410140.43448,73.858791576
129,14.758293,-74.15553,82.333921,410209.41072,91.26880908
130,14.968247,-74.629973,83.152317,410311.88448,113.398870992
131,15.180314,-75.11186,84.054441,410437.06584,137.138246424
132,15.394452,-75.601286,85.020467,410587.0884,162.617782968
133,15.610645,-76.098499,85.994084,410763.1104,189.932968368
134,15.82882,-76.603521,86.991563,410967.41784,219.165028776
135,16.048905,-77.11655,88.005234,411201.99192,250.384845432
136,16.270845,-77.637634,89.029607,411468.44808,283.675229448
137,16.494487,-78.167053,90.076852,411770.20008,319.116456
138,16.719823,-78.704804,91.131388,412107.5832,356.7781536
139,16.94667,-79.250963,92.195822,412484.28552,396.72899064
140,17.174949,-79.805729,93.268218,412901.86152,439.03888824
141,17.404527,-80.369121,94.343852,413362.87152,483.77984016
142,17.635235,-80.941222,95.442203,413870.36352,531.01987776
143,17.866963,-81.522073,96.515222,414426.25776,580.80164256
144,18.099565,-82.111782,97.616982,415033.02312,633.18204072
145,18.332869,-82.710253,98.720546,415693.37232,688.19082072
146,18.566689,-83.317563,99.840671,416409.8352,745.83712656
147,18.800775,-83.933592,100.99277,417185.7036,806.15442528
148,19.0349,-84.558258,102.10643,418023.56832,869.12153328
149,19.26891,-85.191451,103.22527,418924.70952,934.68343416
150,19.502441,-85.832883,104.3466,419893.79064,1002.77575416
151,19.735353,-86.482471,105.47075,420931.26888,1073.37264624
151.60001,19.874657,-86.876015,106.15368,421588.20432,1116.89909208
152,19.967296,-87.139947,106.6051,422040.98472,1146.39376512
153,20.198029,-87.805014,107.7324,423224.76696,1221.735936
154,20.427268,-88.477363,108.89037,424484.96256,1299.33871704
155,20.654686,-89.156601,110.05205,425824.58904,1379.16321576
156,20.880075,-89.842513,111.23206,427244.5608,1461.14347344
157,21.103151,-90.534617,112.42201,428747.10288,1545.25876368
158,21.323541,-91.232533,113.36407,430334.7756,1629.92214528
159,21.540594,-91.93441,114.25176,432005.04912,1707.96228384
160,21.753358,-92.637237,116.25702,433747.926,1777.56757008
161,21.960898,-93.338559,117.98548,435558.1332,1841.6881632
162,22.162889,-94.03703,119.14386,437430.12336,1902.12095064
163,22.359121,-94.731906,119.87885,439361.91528,1960.33269096
164,22.549671,-95.42268,120.75777,441350.18664,2017.07233872
165,22.734442,-96.109159,121.84628,443395.18128,2072.65780032
165.60001,22.842536,-96.518904,122.54745,444649.098,2105.47028232
166,22.913501,-96.791139,123.01842,445495.25328,2127.14710968
167,23.086878,-97.468408,124.19504,447649.42728,2180.67858504
168,23.254631,-98.140765,125.35367,449856.66696,2233.2828588
169,23.416849,-98.808214,126.47497,452115.57024,2284.97965152
170,23.573516,-99.47047,127.55427,454426.41144,2335.756314
170.56,23.658897,-99.839114,128.14326,455742.05016,2363.79706056
170.60001,23.66495,-99.865393,128.185,455836.3248,2365.79014776
171,23.72477,-100.12757,128.60186,456787.08744,2385.6273852
172,23.870652,-100.77927,129.64608,459197.23248,2434.58932944
173,24.011229,-101.42552,130.69287,461655.99312,2482.64967528
174,24.146617,-102.06625,131.74165,464161.84536,2529.81445776
175,24.276819,-102.70126,132.7917,466715.06352,2576.0799888
175.60001,24.352534,-103.07956,133.39063,468268.6596,2603.41478808
176,24.401988,-103.33063,133.76995,469313.69688,2621.46169128
177,24.522137,-103.95412,134.67249,471957.92832,2665.95858984
178,24.637422,-104.57183,135.51187,474645.8376,2709.58866768
179,24.747902,-105.18355,136.30707,477376.93704,2752.34915112
180,24.853703,-105.78933,137.05786,480149.85504,2794.2556764
181,24.954834,-106.38904,137.78023,482965.01832,2835.31019424
182,25.051466,-106.98271,138.46729,485820.35424,2875.53117552
183,25.143661,-107.57022,139.15046,488715.43608,2914.92102816
184,25.231495,-108.15164,139.82929,491649.80664,2953.49685144
185,25.315073,-108.72689,140.48426,494622.46008,2991.2648328
186,25.394528,-109.29597,141.1224,497631.90288,3028.23826152
187,25.469873,-109.85881,141.75429,500678.68368,3064.4262816
188,25.541282,-110.41548,142.37552,503760.76032,3099.8446512
189,25.608802,-110.96596,142.96584,506878.04136,3134.5040688
190,25.672539,-111.51021,143.50873,510029.67336,3168.4139832
190.60001,25.709034,-111.83382,143.82316,511936.25832,3188.4082536
191,25.732609,-112.04831,144.03161,513214.40664,3201.5911584
192,25.789041,-112.58016,144.53691,516432.60696,3234.039252
193,25.841993,-113.10588,145.02882,519682.44552,3265.7783808
194,25.891513,-113.62546,145.51002,522963.86136,3296.8186032
195,25.937704,-114.13888,145.97845,526275.97056,3327.167844
196,25.980678,-114.64624,146.43692,529617.70632,3356.8453056
197,26.020453,-115.14747,146.89014,532989.40392,3385.8561696
198,26.057183,-115.6427,147.32953,536389.38696,3414.2193336
199,26.090923,-116.1319,147.7606,539817.47256,3441.9430272
200,26.121746,-116.61514,148.1866,543273.14256,3469.0409664
201,26.149743,-117.09243,148.60754,546755.63496,3495.5232096
202,26.175021,-117.56387,149.02263,550263.88296,3521.4056064
203,26.197622,-118.02947,149.42784,553797.88656,3546.6973008
204,26.217633,-118.48925,149.82807,557356.91424,3571.4092656
205,26.235117,-118.94328,150.22031,560940.5088,3595.5536928
206,26.250154,-119.39161,150.60515,564548.06064,3619.1424696
207,26.262845,-119.83433,150.9852,568178.53344,3642.1896168
208,26.273195,-120.27141,151.36043,571832.44536,3664.7012304
209,26.281344,-120.70297,151.72732,575508.02856,3686.6919408
210,26.287318,-121.12906,152.0897,579205.61832,3708.1733304
211,26.291224,-121.54974,152.44751,582923.84304,3729.1554576
212,26.29305,-121.96502,152.79402,586663.55616,3749.6462472
213,26.292928,-122.37503,153.13179,590423.0508,3769.6603296
214,26.290858,-122.77972,153.46518,594202.96704,3789.2028864
215,26.286958,-123.17926,153.79433,598001.71992,3808.2891576
216,26.281284,-123.57373,154.11932,601819.00464,3826.9298112
217,26.273841,-123.96304,154.44011,605655.18696,3845.1275904
218,26.264703,-124.34735,154.75681,609509.50488,3862.8968208
218.60001,26.258458,-124.57561,154.94495,611830.13016,3873.358776
219,26.253952,-124.72677,155.06953,613381.044,3880.24878
220,26.241617,-125.10128,155.37825,617269.74336,3897.1898688
220.60001,26.233493,-125.32367,155.5616,619610.82072,3907.161096
221,26.22775,-125.47096,155.68303,621175.26768,3913.7286216
222,26.21242,-125.83592,155.98395,625096.73304,3929.87784
223,26.195617,-126.19613,156.28096,629034.81,3945.6411816
224,26.177455,-126.55173,156.57417,632988.00504,3961.0305336
225,26.15792,-126.90269,156.86352,636956.89728,3976.0501632
226,26.137099,-127.24919,157.14465,640940.35896,3990.714396
227,26.115047,-127.59127,157.41445,644937.84144,4005.0299376
228,26.091743,-127.9289,157.68072,648950.04576,4019.0004456
229,26.067284,-128.26225,157.94357,652975.69176,4032.6390264
230,26.041654,-128.59126,158.20296,657015.38904,4045.9478136
230.60001,26.025765,-128.78667,158.35702,659445.1632,4053.780564
231,26.014951,-128.91609,158.45904,661067.73552,4058.9380848
232,25.987171,-129.23677,158.71183,665133.12744,4071.6165456
233,25.958358,-129.55335,158.96136,669211.1076,4083.989292
234,25.928576,-129.86591,159.2077,673300.79208,4096.0648584
235,25.897795,-130.17446,159.45083,677403.0648,4107.8469024
236,25.866109,-130.47912,159.69086,681516.58464,4119.3451776
237,25.833519,-130.77991,159.92776,685641.504,4130.5648656
238,25.800055,-131.07688,160.16157,689777.57904,4141.5114528
239,25.765744,-131.3701,160.39233,693924.62688,4152.1922544
240,25.730643,-131.65966,160.62009,698081.7636,4162.6142808
241,25.694758,-131.94557,160.84481,702249.26352,4172.7814944
242,25.658084,-132.22784,161.06649,706427.43144,4182.6981624
243,25.620698,-132.5066,161.28519,710614.95672,4192.3734288
244,25.582601,-132.78189,161.4977,714812.17464,4201.811256
245,25.543842,-133.05377,161.7043,719018.23176,4211.0183496
246,25.504394,-133.32223,161.90808,723233.98152,4219.9962336
247,25.464334,-133.58739,162.10914,727458.14376,4228.754052
248,25.423647,-133.84928,162.30746,731691.20616,4237.2954624
249,25.382349,-134.10787,162.50296,735932.98584,4245.621684
250,25.340511,-134.36338,162.6913,740182.35504,4253.744604
251,25.298103,-134.61569,162.86927,744440.1672,4261.6626984
252,25.255147,-134.86492,163.04487,748705.9956,4269.3832824
253,25.2117,-135.11114,163.21813,752978.95632,4276.9112328
254,25.167754,-135.35436,163.38905,757259.47608,4284.2495976
255,25.123321,-135.59463,163.55766,761547.28056,4291.4023392
256,25.078425,-135.83199,163.724,765842.21736,4298.3743344
257,25.033079,-136.06648,163.8867,770144.13408,4305.168936
258,24.987299,-136.29815,164.04661,774452.7564,4311.7901064
259,24.941121,-136.52708,164.20429,778767.56616,4318.2436368
260,24.894542,-136.75327,164.35976,783088.77672,4324.5307464
261,24.847547,-136.97673,164.51297,787416.8148,4330.654788
262,24.800199,-137.19757,164.66398,791750.49168,4336.6221624
263,24.75251,-137.41585,164.8128,796089.65496,4342.4356128
264,24.704456,-137.63149,164.95935,800435.00568,4348.0957488
265,24.656062,-137.84461,165.10365,804786.11712,4353.607752
266,24.607359,-138.05528,165.24576,809142.37968,4358.9764992
267,24.558353,-138.26347,165.38559,813503.79336,4364.2026
268,24.509035,-138.46925,165.52316,817870.63248,4369.2903216
269,24.459432,-138.67264,165.65844,822242.47032,4374.2421024
270,24.409554,-138.87366,165.79141,826619.18496,4379.0606856
271,24.359422,-139.07243,165.92207,831000.34968,4383.7503384
272,24.309011,-139.26886,166.05037,835386.66552,4388.3119752
273,24.258375,-139.46309,166.17632,839777.0352,4392.7498632
274,24.207496,-139.6551,166.29987,844171.88544,4397.066136
275,24.156385,-139.84494,166.42098,848571.09432,4401.2629272
276,24.10505,-140.03263,166.53963,852974.47896,4405.3432848
277,24.053503,-140.2182,166.6558,857382.00888,4409.3093424
278,24.001771,-140.40172,166.76947,861792.95256,4413.1647576
279,23.94982,-140.58315,166.88052,866208.31584,4416.9092256
280,23.897703,-140.76259,166.98903,870626.91,4420.547928
281,23.845397,-140.94005,167.09489,875049.28368,4424.082084
282,23.792921,-141.11553,167.19805,879475.01016,4427.5132176
283,23.740272,-141.28908,167.2985,883904.3028,4430.8437672
284,23.687479,-141.46077,167.39542,888336.552,4434.0773904
285,23.634517,-141.63053,167.4892,892772.39784,4437.2131728
286,23.581424,-141.79847,167.58066,897210.9564,4440.2559912
287,23.528188,-141.9646,167.66973,901652.53248,4443.2058456
288,23.474796,-142.12888,167.75635,906097.5528,4446.0645648
289,23.421306,-142.29147,167.84061,910544.61528,4448.8370256
290,23.367672,-142.45228,167.92233,914994.9696,4451.521704
291,23.313921,-142.61136,168.00185,919447.9452,4454.1210384
292,23.260072,-142.76879,168.07932,923903.0544,4456.6383816
293,23.206095,-142.9245,168.15464,928361.18112,4459.0734288
294,23.15203,-143.0786,168.22789,932821.28904,4461.429228
295,23.097863,-143.23108,168.299,937283.80488,4463.7069984
296,23.043598,-143.38196,168.36797,941748.69816,4465.908264
297,22.989245,-143.53125,168.43478,946215.69456,4468.034244
298,22.934801,-143.67899,168.49941,950684.88552,4470.0867672
299,22.880289,-143.82523,168.5619,955155.81384,4472.0685768
300,22.825686,-143.96992,168.62214,959628.99768,4473.9781488
301,22.771014,-144.11316,168.68018,964103.91888,4475.8200552
302,22.716277,-144.25493,168.73599,968580.54696,4477.594296
303,22.66147,-144.39524,168.78953,973059.00384,4479.3017856
304,22.606597,-144.53413,168.84081,977539.19808,4480.9443528
305,22.551668,-144.67159,168.89484,982020.88584,4482.5226072
306,22.496687,-144.80772,168.94877,986503.97568,4484.0399016
307,22.441639,-144.94243,169.00111,990988.95528,4485.4950168
308,22.386552,-145.07583,169.0519,995475.03216,4486.890696
309,22.331416,-145.20789,169.10114,999962.51112,4488.2275488
310,22.276234,-145.33864,169.14882,1004451.30072,4489.5067944
311,22.221004,-145.46809,169.19495,1008941.55336,4490.7293472
312,22.165738,-145.59625,169.23953,1013432.81184,4491.8964264
313,22.110432,-145.72316,169.28257,1017925.41144,4493.0092512
314,22.055089,-145.84882,169.32409,1022419.10832,4494.068736
315,21.999721,-145.97329,169.36411,1026913.59768,4495.0773192
316,21.944324,-146.09655,169.40262,1031409.0624,4496.0343912
317,21.888899,-146.21861,169.4396,1035905.44152,4496.9408664
318,21.833445,-146.33949,169.47508,1040402.82648,4497.7982688
319,21.777969,-146.45921,169.50905,1044901.06488,4498.6075128
320,21.722466,-146.57778,169.54153,1049400.15672,4499.3695128
321,21.666944,-146.69521,169.5725,1053899.9496,4500.0845736
322,21.611413,-146.81156,169.60203,1058400.23016,4500.7554384
323,21.555855,-146.92677,169.63005,1062901.39464,4501.3805832
324,21.500286,-147.04094,169.65663,1067403.10776,4501.963056
325,21.444712,-147.15402,169.68173,1071905.15616,4502.5022472
326,21.38912,-147.26604,169.7054,1076407.96656,4502.999376
327,21.333518,-147.37702,169.72759,1080911.14272,4503.4553568
328,21.277907,-147.48696,169.74835,1085414.83704,4503.8704944
